# Pulseq sequence file
# Created by MATLAB mr toolbox

[VERSION]
major 1
minor 4
revision 1

[DEFINITIONS]
AdcRasterTime 1e-10 
BlockDurationRaster 1e-06 
FOV 0.256 0.256 0.003 
GradientRasterTime 6.4e-06 
Name 1epi 
RadiofrequencyRasterTime 6.4e-06 
TotalDuration 0.0891008 

# Format of blocks:
# NUM DUR RF  GX  GY  GZ  ADC  EXT
[BLOCKS]
  1 3216   1   0   0   1  0  1
  2 749   0   2   3   4  0  0
  3 640   0   5   6   0  1  0
  4 640   0   7   8   0  1  0
  5 640   0   5   8   0  1  0
  6 640   0   7   8   0  1  0
  7 640   0   5   8   0  1  0
  8 640   0   7   8   0  1  0
  9 640   0   5   8   0  1  0
 10 640   0   7   8   0  1  0
 11 640   0   5   8   0  1  0
 12 640   0   7   8   0  1  0
 13 640   0   5   8   0  1  0
 14 640   0   7   8   0  1  0
 15 640   0   5   8   0  1  0
 16 640   0   7   8   0  1  0
 17 640   0   5   8   0  1  0
 18 640   0   7   8   0  1  0
 19 640   0   5   8   0  1  0
 20 640   0   7   8   0  1  0
 21 640   0   5   8   0  1  0
 22 640   0   7   8   0  1  0
 23 640   0   5   8   0  1  0
 24 640   0   7   8   0  1  0
 25 640   0   5   8   0  1  0
 26 640   0   7   8   0  1  0
 27 640   0   5   8   0  1  0
 28 640   0   7   8   0  1  0
 29 640   0   5   8   0  1  0
 30 640   0   7   8   0  1  0
 31 640   0   5   8   0  1  0
 32 640   0   7   8   0  1  0
 33 640   0   5   8   0  1  0
 34 640   0   7   8   0  1  0
 35 640   0   5   8   0  1  0
 36 640   0   7   8   0  1  0
 37 640   0   5   8   0  1  0
 38 640   0   7   8   0  1  0
 39 640   0   5   8   0  1  0
 40 640   0   7   8   0  1  0
 41 640   0   5   8   0  1  0
 42 640   0   7   8   0  1  0
 43 640   0   5   8   0  1  0
 44 640   0   7   8   0  1  0
 45 640   0   5   8   0  1  0
 46 640   0   7   8   0  1  0
 47 640   0   5   8   0  1  0
 48 640   0   7   8   0  1  0
 49 640   0   5   8   0  1  0
 50 640   0   7   8   0  1  0
 51 640   0   5   8   0  1  0
 52 640   0   7   8   0  1  0
 53 640   0   5   8   0  1  0
 54 640   0   7   8   0  1  0
 55 640   0   5   8   0  1  0
 56 640   0   7   8   0  1  0
 57 640   0   5   8   0  1  0
 58 640   0   7   8   0  1  0
 59 640   0   5   8   0  1  0
 60 640   0   7   8   0  1  0
 61 640   0   5   8   0  1  0
 62 640   0   7   8   0  1  0
 63 640   0   5   8   0  1  0
 64 640   0   7   8   0  1  0
 65 640   0   5   8   0  1  0
 66 640   0   7   8   0  1  0
 67 640   0   5   8   0  1  0
 68 640   0   7   8   0  1  0
 69 640   0   5   8   0  1  0
 70 640   0   7   8   0  1  0
 71 640   0   5   8   0  1  0
 72 640   0   7   8   0  1  0
 73 640   0   5   8   0  1  0
 74 640   0   7   8   0  1  0
 75 640   0   5   8   0  1  0
 76 640   0   7   8   0  1  0
 77 640   0   5   8   0  1  0
 78 640   0   7   8   0  1  0
 79 640   0   5   8   0  1  0
 80 640   0   7   8   0  1  0
 81 640   0   5   8   0  1  0
 82 640   0   7   8   0  1  0
 83 640   0   5   8   0  1  0
 84 640   0   7   8   0  1  0
 85 640   0   5   8   0  1  0
 86 640   0   7   8   0  1  0
 87 640   0   5   8   0  1  0
 88 640   0   7   8   0  1  0
 89 640   0   5   8   0  1  0
 90 640   0   7   8   0  1  0
 91 640   0   5   8   0  1  0
 92 640   0   7   8   0  1  0
 93 640   0   5   8   0  1  0
 94 640   0   7   8   0  1  0
 95 640   0   5   8   0  1  0
 96 640   0   7   8   0  1  0
 97 640   0   5   8   0  1  0
 98 640   0   7   8   0  1  0
 99 640   0   5   8   0  1  0
100 640   0   7   8   0  1  0
101 640   0   5   8   0  1  0
102 640   0   7   8   0  1  0
103 640   0   5   8   0  1  0
104 640   0   7   8   0  1  0
105 640   0   5   8   0  1  0
106 640   0   7   8   0  1  0
107 640   0   5   8   0  1  0
108 640   0   7   8   0  1  0
109 640   0   5   8   0  1  0
110 640   0   7   8   0  1  0
111 640   0   5   8   0  1  0
112 640   0   7   8   0  1  0
113 640   0   5   8   0  1  0
114 640   0   7   8   0  1  0
115 640   0   5   8   0  1  0
116 640   0   7   8   0  1  0
117 640   0   5   8   0  1  0
118 640   0   7   8   0  1  0
119 640   0   5   8   0  1  0
120 640   0   7   8   0  1  0
121 640   0   5   8   0  1  0
122 640   0   7   8   0  1  0
123 640   0   5   8   0  1  0
124 640   0   7   8   0  1  0
125 640   0   5   8   0  1  0
126 640   0   7   8   0  1  0
127 640   0   5   8   0  1  0
128 640   0   7   8   0  1  0
129 640   0   5   8   0  1  0
130 640   0   7   9   0  1  0
131 3216   1   0   0   1  0  1

# Format of RF events:
# id amplitude mag_id phase_id time_shape_id delay freq phase
# ..        Hz   ....     ....          ....    us   Hz   rad
[RF]
1      502.439 1 2 0 1101 0 -0

# Format of arbitrary gradients:
#   time_shape_id of 0 means default timing (stepping with grad_raster starting at 1/2 of grad_raster)
# id amplitude amp_shape_id time_shape_id delay
# ..      Hz/m       ..         ..          us
[GRADIENTS]
6     -95741.4 3 4 608
8     -95741.4 5 6 0
9     -95741.4 7 8 0

# Format of trapezoid gradients:
# id amplitude rise flat fall delay
# ..      Hz/m   us   us   us    us
[TRAP]
 1       666667 115 2000 115 986
 2 -1.19623e+06 211    0 211 326
 3       359366  64  621  64   0
 4 -1.36008e+06 230  288 230   0
 5  1.12787e+06 192  256 192   0
 7 -1.12787e+06 192  256 192   0

# Format of ADC events:
# id num dwell delay freq phase
# ..  ..    ns    us   Hz   rad
[ADC]
1 340 1700 31 0 0

# Format of extension lists:
# id type ref next_id
# next_id of 0 terminates the list
# Extension list is followed by extension specifications
[EXTENSIONS]
1 1 1 0

# Extension specification for digital output and input triggers:
# id type channel delay (us) duration (us)
extension TRIGGERS 1
1 1 1 0 100

# Sequence Shapes
[SHAPES]

shape_id 1
num_samples 313
0.000513688559
0.00155183286
0.00260591488
0.00367785144
0.00476956617
0.00588297238
0.00701995557
0.00818235569
0.00937194896
0.0105904297
0.011839392
0.013120311
0.0144345248
0.0157832161
0.0171673939
0.0185878757
0.0200452696
0.0215399578
0.0230720791
0.024641513
0.0262478642
0.0278904473
0.0295682732
0.0312800349
0.0330240959
0.0347984778
0.0366008504
0.0384285217
0.0402784296
0.0421471352
0.0440308158
0.0459252609
0.0478258687
0.0497276435
0.0516251953
0.0535127404
0.0553841035
0.0572327212
0.059051647
0.0608335575
0.062570761
0.0642552062
0.0658784937
0.0674318881
0.0689063319
0.0702924609
0.0715806209
0.0727608858
0.0738230773
0.0747567854
0.0755513909
0.0761960885
0.0766799115
0.0769917576
0.0771204154
0.0770545925
0.0767829441
0.0762941027
0.0755767084
0.0746194404
0.0734110484
0.0719403852
0.0701964395
0.0681683693
0.0658455348
0.063217533
0.0602742308
0.0570057992
0.0534027469
0.0494559537
0.0451567039
0.0404967193
0.0354681911
0.0300638121
0.0242768076
0.0181009653
0.0115306655
0.00456090865
0.0028126568
0.0105937085
0.0187852251
0.027389463
0.036407934
0.0458413847
0.0556897779
0.0659522745
0.0766272185
0.087712123
0.0992036582
0.111097641
0.123389028
0.136071908
0.149139499
0.162584146
0.17639732
0.190569622
0.205090787
0.219949691
0.235134358
0.250631973
0.266428893
0.282510666
0.298862044
0.315467005
0.332308776
0.349369854
0.366632032
0.384076428
0.401683516
0.419433152
0.437304614
0.455276632
0.473327427
0.49143475
0.509575918
0.527727859
0.545867152
0.563970071
0.582012632
0.599970635
0.617819712
0.635535376
0.653093067
0.670468202
0.687636223
0.704572645
0.72125311
0.737653433
0.75374965
0.769518074
0.784935335
0.799978439
0.814624805
0.828852323
0.842639392
0.855964973
0.868808627
0.881150565
0.892971686
0.90425362
0.914978767
0.925130333
0.934692373
0.943649817
0.951988509
0.959695235
0.966757754
0.973164821
0.978906217
0.983972766
0.988356359
0.992049971
0.995047674
0.997344655
0.998937221
0.999822811
1
0.999468503
0.998229176
0.996284012
0.993636138
0.990289809
0.986250396
0.981524379
0.976119326
0.970043882
0.963307747
0.955921656
0.947897355
0.939247576
0.929986007
0.920127264
0.909686861
0.89868117
0.887127394
0.875043521
0.862448293
0.84936116
0.835802242
0.821792283
0.807352607
0.792505078
0.777272046
0.761676305
0.745741042
0.729489793
0.712946389
0.69613491
0.679079634
0.66180499
0.644335505
0.626695755
0.608910317
0.591003723
0.573000405
0.554924652
0.536800563
0.518651998
0.500502537
0.482375431
0.464293563
0.446279403
0.428354972
0.410541797
0.39286088
0.375332659
0.35797697
0.340813024
0.323859367
0.307133858
0.290653638
0.274435107
0.258493904
0.242844881
0.227502086
0.212478751
0.197787272
0.183439201
0.169445234
0.155815203
0.142558073
0.129681935
0.117194008
0.105100639
0.0934073031
0.0821186139
0.0712383264
0.0607693474
0.050713747
0.0410727706
0.0318468545
0.0230356417
0.0146380004
0.00665204403
0.000924847942
0.00809600667
0.0148654499
0.0212378566
0.0272185399
0.0328134192
0.038028992
0.0428723029
0.0473509139
0.0514728725
0.0552466798
0.0586812577
0.0617859163
0.0645703199
0.0670444537
0.0692185901
0.0711032547
0.0727091925
0.0740473344
0.0751287638
0.0759646835
0.076566383
0.0769452068
0.0771125222
0.0770796893
0.0768580302
0.0764588004
0.0758931601
0.0751721472
0.0743066508
0.0733073862
0.0721848707
0.0709494013
0.0696110326
0.0681795571
0.0666644863
0.065075033
0.0634200953
0.0617082425
0.0599477014
0.0581463446
0.0563116808
0.0544508459
0.0525705955
0.0506772995
0.0487769379
0.0468750975
0.0449769712
0.0430873576
0.0412106626
0.0393509021
0.0375117063
0.035696325
0.033907634
0.0321481435
0.0304200065
0.028725029
0.0270646813
0.0254401098
0.0238521501
0.0223013406
0.0207879374
0.0193119292
0.0178730537
0.0164708134
0.0151044934
0.0137731782
0.0124757698
0.0112110054
0.00997747621
0.00877364515
0.0075978658
0.00644840058
0.00532343914
0.00422111651
0.00313953108
0.00207676221
0.00103088758
6.23721309e-18

shape_id 2
num_samples 313
0.5
0
0
75
-0.5
0
0
153
0.5
0
0
76

shape_id 3
num_samples 3
-0
1
1

shape_id 4
num_samples 3
0
3
5

shape_id 5
num_samples 6
1
1
-0
-0
1
1

shape_id 6
num_samples 6
0
1
4
95
98
100

shape_id 7
num_samples 3
1
1
-0

shape_id 8
num_samples 3
0
1
4


[SIGNATURE]
# This is the hash of the Pulseq file, calculated right before the [SIGNATURE] section was added
# It can be reproduced/verified with md5sum if the file trimmed to the position right above [SIGNATURE]
# The new line character preceding [SIGNATURE] BELONGS to the signature (and needs to be sripped away for recalculating/verification)
Type md5
Hash c95e5e48aadea59c88d0a2a5d7322545
