# Pulseq sequence file
# Created by MATLAB mr toolbox

[VERSION]
major 1
minor 4
revision 0

[DEFINITIONS]
AdcRasterTime 1e-07 
BlockDurationRaster 1e-05 
FOV 0.22 0.22 0.132 
GradientRasterTime 1e-05 
Name epi-diff 
RadiofrequencyRasterTime 1e-06 
TotalDuration 92.1448 

# Format of blocks:
# NUM DUR RF  GX  GY  GZ  ADC  EXT
[BLOCKS]
    1 350   0   1   1   1  0  0
    2 1231   1   2   2   2  0  0
    3 394   2   0   0   3  0  1
    4 142   0   0   0   4  0  0
    5 1869   0   0   0   5  0  0
    6  95   0   6   6   6  0  0
    7 394   3   0   0   3  0  0
    8  95   0   6   6   6  0  0
    9 1331   0   0   0   5  0  0
   10  48   0   7   8   0  0  0
   11  69   0   9  10   0  1  0
   12  69   0  11  12   0  1  0
   13  69   0   9  12   0  1  0
   14  69   0  11  12   0  1  0
   15  69   0   9  12   0  1  0
   16  69   0  11  12   0  1  0
   17  69   0   9  12   0  1  0
   18  69   0  11  12   0  1  0
   19  69   0   9  12   0  1  0
   20  69   0  11  12   0  1  0
   21  69   0   9  12   0  1  0
   22  69   0  11  12   0  1  0
   23  69   0   9  12   0  1  0
   24  69   0  11  12   0  1  0
   25  69   0   9  12   0  1  0
   26  69   0  11  12   0  1  0
   27  69   0   9  12   0  1  0
   28  69   0  11  12   0  1  0
   29  69   0   9  12   0  1  0
   30  69   0  11  12   0  1  0
   31  69   0   9  12   0  1  0
   32  69   0  11  12   0  1  0
   33  69   0   9  12   0  1  0
   34  69   0  11  12   0  1  0
   35  69   0   9  12   0  1  0
   36  69   0  11  12   0  1  0
   37  69   0   9  12   0  1  0
   38  69   0  11  12   0  1  0
   39  69   0   9  12   0  1  0
   40  69   0  11  12   0  1  0
   41  69   0   9  12   0  1  0
   42  69   0  11  12   0  1  0
   43  69   0   9  12   0  1  0
   44  69   0  11  12   0  1  0
   45  69   0   9  12   0  1  0
   46  69   0  11  12   0  1  0
   47  69   0   9  13   0  1  0
   48  23   0   0   0   0  0  0
   49  23   0   0   0   0  0  0
   50  23   0   0   0   0  0  0
   51 1900   0   0   0   0  0  0
   52 350   0   1   1   1  0  0
   53 1231   1   2   2   2  0  0
   54 394   4   0   0   3  0  1
   55 142   0   0   0   4  0  0
   56 1869   0   0   0   5  0  0
   57  95   0   6   6   6  0  0
   58 394   5   0   0   3  0  0
   59  95   0   6   6   6  0  0
   60 1331   0   0   0   5  0  0
   61  48   0   7   8   0  0  0
   62  69   0   9  10   0  1  0
   63  69   0  11  12   0  1  0
   64  69   0   9  12   0  1  0
   65  69   0  11  12   0  1  0
   66  69   0   9  12   0  1  0
   67  69   0  11  12   0  1  0
   68  69   0   9  12   0  1  0
   69  69   0  11  12   0  1  0
   70  69   0   9  12   0  1  0
   71  69   0  11  12   0  1  0
   72  69   0   9  12   0  1  0
   73  69   0  11  12   0  1  0
   74  69   0   9  12   0  1  0
   75  69   0  11  12   0  1  0
   76  69   0   9  12   0  1  0
   77  69   0  11  12   0  1  0
   78  69   0   9  12   0  1  0
   79  69   0  11  12   0  1  0
   80  69   0   9  12   0  1  0
   81  69   0  11  12   0  1  0
   82  69   0   9  12   0  1  0
   83  69   0  11  12   0  1  0
   84  69   0   9  12   0  1  0
   85  69   0  11  12   0  1  0
   86  69   0   9  12   0  1  0
   87  69   0  11  12   0  1  0
   88  69   0   9  12   0  1  0
   89  69   0  11  12   0  1  0
   90  69   0   9  12   0  1  0
   91  69   0  11  12   0  1  0
   92  69   0   9  12   0  1  0
   93  69   0  11  12   0  1  0
   94  69   0   9  12   0  1  0
   95  69   0  11  12   0  1  0
   96  69   0   9  12   0  1  0
   97  69   0  11  12   0  1  0
   98  69   0   9  13   0  1  0
   99  23   0   0   0   0  0  0
  100  23   0   0   0   0  0  0
  101  23   0   0   0   0  0  0
  102 1900   0   0   0   0  0  0
  103 350   0   1   1   1  0  0
  104 1231   1   2   2   2  0  0
  105 394   6   0   0   3  0  1
  106 142   0   0   0   4  0  0
  107 1869   0   0   0   5  0  0
  108  95   0   6   6   6  0  0
  109 394   7   0   0   3  0  0
  110  95   0   6   6   6  0  0
  111 1331   0   0   0   5  0  0
  112  48   0   7   8   0  0  0
  113  69   0   9  10   0  1  0
  114  69   0  11  12   0  1  0
  115  69   0   9  12   0  1  0
  116  69   0  11  12   0  1  0
  117  69   0   9  12   0  1  0
  118  69   0  11  12   0  1  0
  119  69   0   9  12   0  1  0
  120  69   0  11  12   0  1  0
  121  69   0   9  12   0  1  0
  122  69   0  11  12   0  1  0
  123  69   0   9  12   0  1  0
  124  69   0  11  12   0  1  0
  125  69   0   9  12   0  1  0
  126  69   0  11  12   0  1  0
  127  69   0   9  12   0  1  0
  128  69   0  11  12   0  1  0
  129  69   0   9  12   0  1  0
  130  69   0  11  12   0  1  0
  131  69   0   9  12   0  1  0
  132  69   0  11  12   0  1  0
  133  69   0   9  12   0  1  0
  134  69   0  11  12   0  1  0
  135  69   0   9  12   0  1  0
  136  69   0  11  12   0  1  0
  137  69   0   9  12   0  1  0
  138  69   0  11  12   0  1  0
  139  69   0   9  12   0  1  0
  140  69   0  11  12   0  1  0
  141  69   0   9  12   0  1  0
  142  69   0  11  12   0  1  0
  143  69   0   9  12   0  1  0
  144  69   0  11  12   0  1  0
  145  69   0   9  12   0  1  0
  146  69   0  11  12   0  1  0
  147  69   0   9  12   0  1  0
  148  69   0  11  12   0  1  0
  149  69   0   9  13   0  1  0
  150  23   0   0   0   0  0  0
  151  23   0   0   0   0  0  0
  152  23   0   0   0   0  0  0
  153 1900   0   0   0   0  0  0
  154 350   0   1   1   1  0  0
  155 1231   1   2   2   2  0  0
  156 394   8   0   0   3  0  1
  157 142   0   0   0   4  0  0
  158 1869   0   0   0   5  0  0
  159  95   0   6   6   6  0  0
  160 394   9   0   0   3  0  0
  161  95   0   6   6   6  0  0
  162 1331   0   0   0   5  0  0
  163  48   0   7   8   0  0  0
  164  69   0   9  10   0  1  0
  165  69   0  11  12   0  1  0
  166  69   0   9  12   0  1  0
  167  69   0  11  12   0  1  0
  168  69   0   9  12   0  1  0
  169  69   0  11  12   0  1  0
  170  69   0   9  12   0  1  0
  171  69   0  11  12   0  1  0
  172  69   0   9  12   0  1  0
  173  69   0  11  12   0  1  0
  174  69   0   9  12   0  1  0
  175  69   0  11  12   0  1  0
  176  69   0   9  12   0  1  0
  177  69   0  11  12   0  1  0
  178  69   0   9  12   0  1  0
  179  69   0  11  12   0  1  0
  180  69   0   9  12   0  1  0
  181  69   0  11  12   0  1  0
  182  69   0   9  12   0  1  0
  183  69   0  11  12   0  1  0
  184  69   0   9  12   0  1  0
  185  69   0  11  12   0  1  0
  186  69   0   9  12   0  1  0
  187  69   0  11  12   0  1  0
  188  69   0   9  12   0  1  0
  189  69   0  11  12   0  1  0
  190  69   0   9  12   0  1  0
  191  69   0  11  12   0  1  0
  192  69   0   9  12   0  1  0
  193  69   0  11  12   0  1  0
  194  69   0   9  12   0  1  0
  195  69   0  11  12   0  1  0
  196  69   0   9  12   0  1  0
  197  69   0  11  12   0  1  0
  198  69   0   9  12   0  1  0
  199  69   0  11  12   0  1  0
  200  69   0   9  13   0  1  0
  201  23   0   0   0   0  0  0
  202  23   0   0   0   0  0  0
  203  23   0   0   0   0  0  0
  204 1900   0   0   0   0  0  0
  205 350   0   1   1   1  0  0
  206 1231   1   2   2   2  0  0
  207 394  10   0   0   3  0  1
  208 142   0   0   0   4  0  0
  209 1869   0   0   0   5  0  0
  210  95   0   6   6   6  0  0
  211 394  11   0   0   3  0  0
  212  95   0   6   6   6  0  0
  213 1331   0   0   0   5  0  0
  214  48   0   7   8   0  0  0
  215  69   0   9  10   0  1  0
  216  69   0  11  12   0  1  0
  217  69   0   9  12   0  1  0
  218  69   0  11  12   0  1  0
  219  69   0   9  12   0  1  0
  220  69   0  11  12   0  1  0
  221  69   0   9  12   0  1  0
  222  69   0  11  12   0  1  0
  223  69   0   9  12   0  1  0
  224  69   0  11  12   0  1  0
  225  69   0   9  12   0  1  0
  226  69   0  11  12   0  1  0
  227  69   0   9  12   0  1  0
  228  69   0  11  12   0  1  0
  229  69   0   9  12   0  1  0
  230  69   0  11  12   0  1  0
  231  69   0   9  12   0  1  0
  232  69   0  11  12   0  1  0
  233  69   0   9  12   0  1  0
  234  69   0  11  12   0  1  0
  235  69   0   9  12   0  1  0
  236  69   0  11  12   0  1  0
  237  69   0   9  12   0  1  0
  238  69   0  11  12   0  1  0
  239  69   0   9  12   0  1  0
  240  69   0  11  12   0  1  0
  241  69   0   9  12   0  1  0
  242  69   0  11  12   0  1  0
  243  69   0   9  12   0  1  0
  244  69   0  11  12   0  1  0
  245  69   0   9  12   0  1  0
  246  69   0  11  12   0  1  0
  247  69   0   9  12   0  1  0
  248  69   0  11  12   0  1  0
  249  69   0   9  12   0  1  0
  250  69   0  11  12   0  1  0
  251  69   0   9  13   0  1  0
  252  23   0   0   0   0  0  0
  253  23   0   0   0   0  0  0
  254  23   0   0   0   0  0  0
  255 1900   0   0   0   0  0  0
  256 350   0   1   1   1  0  0
  257 1231   1   2   2   2  0  0
  258 394  12   0   0   3  0  1
  259 142   0   0   0   4  0  0
  260 1869   0   0   0   5  0  0
  261  95   0   6   6   6  0  0
  262 394  13   0   0   3  0  0
  263  95   0   6   6   6  0  0
  264 1331   0   0   0   5  0  0
  265  48   0   7   8   0  0  0
  266  69   0   9  10   0  1  0
  267  69   0  11  12   0  1  0
  268  69   0   9  12   0  1  0
  269  69   0  11  12   0  1  0
  270  69   0   9  12   0  1  0
  271  69   0  11  12   0  1  0
  272  69   0   9  12   0  1  0
  273  69   0  11  12   0  1  0
  274  69   0   9  12   0  1  0
  275  69   0  11  12   0  1  0
  276  69   0   9  12   0  1  0
  277  69   0  11  12   0  1  0
  278  69   0   9  12   0  1  0
  279  69   0  11  12   0  1  0
  280  69   0   9  12   0  1  0
  281  69   0  11  12   0  1  0
  282  69   0   9  12   0  1  0
  283  69   0  11  12   0  1  0
  284  69   0   9  12   0  1  0
  285  69   0  11  12   0  1  0
  286  69   0   9  12   0  1  0
  287  69   0  11  12   0  1  0
  288  69   0   9  12   0  1  0
  289  69   0  11  12   0  1  0
  290  69   0   9  12   0  1  0
  291  69   0  11  12   0  1  0
  292  69   0   9  12   0  1  0
  293  69   0  11  12   0  1  0
  294  69   0   9  12   0  1  0
  295  69   0  11  12   0  1  0
  296  69   0   9  12   0  1  0
  297  69   0  11  12   0  1  0
  298  69   0   9  12   0  1  0
  299  69   0  11  12   0  1  0
  300  69   0   9  12   0  1  0
  301  69   0  11  12   0  1  0
[RF]
1      313.277 1 2 0 800 -1025.27 25.7679
2      329.152 3 4 0 800 -56666.7 0
3      658.303 3 4 0 800 -56666.7 1.5708
4      329.152 3 4 0 800 -54000 0
5      658.303 3 4 0 800 -54000 1.5708
6      329.152 3 4 0 800 -51333.3 0
7      658.303 3 4 0 800 -51333.3 1.5708
8      329.152 3 4 0 800 -48666.7 0
9      658.303 3 4 0 800 -48666.7 1.5708
10      329.152 3 4 0 800 -46000 0
11      658.303 3 4 0 800 -46000 1.5708
12      329.152 3 4 0 800 -43333.3 0
13      658.303 3 4 0 800 -43333.3 1.5708
14      329.152 3 4 0 800 -40666.7 0
15      658.303 3 4 0 800 -40666.7 1.5708
16      329.152 3 4 0 800 -38000 0
17      658.303 3 4 0 800 -38000 1.5708
18      329.152 3 4 0 800 -35333.3 0
19      658.303 3 4 0 800 -35333.3 1.5708
20      329.152 3 4 0 800 -32666.7 0
21      658.303 3 4 0 800 -32666.7 1.5708
22      329.152 3 4 0 800 -30000 0
23      658.303 3 4 0 800 -30000 1.5708
24      329.152 3 4 0 800 -27333.3 0
25      658.303 3 4 0 800 -27333.3 1.5708
26      329.152 3 4 0 800 -24666.7 0
27      658.303 3 4 0 800 -24666.7 1.5708
28      329.152 3 4 0 800 -22000 0
29      658.303 3 4 0 800 -22000 1.5708
30      329.152 3 4 0 800 -19333.3 0
31      658.303 3 4 0 800 -19333.3 1.5708
32      329.152 3 4 0 800 -16666.7 0
33      658.303 3 4 0 800 -16666.7 1.5708
34      329.152 3 4 0 800 -14000 0
35      658.303 3 4 0 800 -14000 1.5708
36      329.152 3 4 0 800 -11333.3 0
37      658.303 3 4 0 800 -11333.3 1.5708
38      329.152 3 4 0 800 -8666.67 0
39      658.303 3 4 0 800 -8666.67 1.5708
40      329.152 3 4 0 800 -6000 0
41      658.303 3 4 0 800 -6000 1.5708
42      329.152 3 4 0 800 -3333.33 0
43      658.303 3 4 0 800 -3333.33 1.5708
44      329.152 3 4 0 800 -666.667 0
45      658.303 3 4 0 800 -666.667 1.5708
46      329.152 3 4 0 800 2000 0
47      658.303 3 4 0 800 2000 1.5708
48      329.152 3 4 0 800 4666.67 0
49      658.303 3 4 0 800 4666.67 1.5708
50      329.152 3 4 0 800 7333.33 0
51      658.303 3 4 0 800 7333.33 1.5708
52      329.152 3 4 0 800 10000 0
53      658.303 3 4 0 800 10000 1.5708
54      329.152 3 4 0 800 12666.7 0
55      658.303 3 4 0 800 12666.7 1.5708
56      329.152 3 4 0 800 15333.3 0
57      658.303 3 4 0 800 15333.3 1.5708
58      329.152 3 4 0 800 18000 0
59      658.303 3 4 0 800 18000 1.5708
60      329.152 3 4 0 800 20666.7 0
61      658.303 3 4 0 800 20666.7 1.5708
62      329.152 3 4 0 800 23333.3 0
63      658.303 3 4 0 800 23333.3 1.5708
64      329.152 3 4 0 800 26000 0
65      658.303 3 4 0 800 26000 1.5708
66      329.152 3 4 0 800 28666.7 0
67      658.303 3 4 0 800 28666.7 1.5708
68      329.152 3 4 0 800 31333.3 0
69      658.303 3 4 0 800 31333.3 1.5708
70      329.152 3 4 0 800 34000 0
71      658.303 3 4 0 800 34000 1.5708
72      329.152 3 4 0 800 36666.7 0
73      658.303 3 4 0 800 36666.7 1.5708
74      329.152 3 4 0 800 39333.3 0
75      658.303 3 4 0 800 39333.3 1.5708
76      329.152 3 4 0 800 42000 0
77      658.303 3 4 0 800 42000 1.5708
78      329.152 3 4 0 800 44666.7 0
79      658.303 3 4 0 800 44666.7 1.5708
80      329.152 3 4 0 800 47333.3 0
81      658.303 3 4 0 800 47333.3 1.5708
82      329.152 3 4 0 800 50000 0
83      658.303 3 4 0 800 50000 1.5708
84      329.152 3 4 0 800 52666.7 0
85      658.303 3 4 0 800 52666.7 1.5708
86      329.152 3 4 0 800 55333.3 0
87      658.303 3 4 0 800 55333.3 1.5708
88      329.152 3 4 0 800 58000 0
89      658.303 3 4 0 800 58000 1.5708
90      329.152 3 4 0 800 -58000 0
91      658.303 3 4 0 800 -58000 1.5708
92      329.152 3 4 0 800 -55333.3 0
93      658.303 3 4 0 800 -55333.3 1.5708
94      329.152 3 4 0 800 -52666.7 0
95      658.303 3 4 0 800 -52666.7 1.5708
96      329.152 3 4 0 800 -50000 0
97      658.303 3 4 0 800 -50000 1.5708
98      329.152 3 4 0 800 -47333.3 0
99      658.303 3 4 0 800 -47333.3 1.5708
100      329.152 3 4 0 800 -44666.7 0
101      658.303 3 4 0 800 -44666.7 1.5708
102      329.152 3 4 0 800 -42000 0
103      658.303 3 4 0 800 -42000 1.5708
104      329.152 3 4 0 800 -39333.3 0
105      658.303 3 4 0 800 -39333.3 1.5708
106      329.152 3 4 0 800 -36666.7 0
107      658.303 3 4 0 800 -36666.7 1.5708
108      329.152 3 4 0 800 -34000 0
109      658.303 3 4 0 800 -34000 1.5708
110      329.152 3 4 0 800 -31333.3 0
111      658.303 3 4 0 800 -31333.3 1.5708
112      329.152 3 4 0 800 -28666.7 0
113      658.303 3 4 0 800 -28666.7 1.5708
114      329.152 3 4 0 800 -26000 0
115      658.303 3 4 0 800 -26000 1.5708
116      329.152 3 4 0 800 -23333.3 0
117      658.303 3 4 0 800 -23333.3 1.5708
118      329.152 3 4 0 800 -20666.7 0
119      658.303 3 4 0 800 -20666.7 1.5708
120      329.152 3 4 0 800 -18000 0
121      658.303 3 4 0 800 -18000 1.5708
122      329.152 3 4 0 800 -15333.3 0
123      658.303 3 4 0 800 -15333.3 1.5708
124      329.152 3 4 0 800 -12666.7 0
125      658.303 3 4 0 800 -12666.7 1.5708
126      329.152 3 4 0 800 -10000 0
127      658.303 3 4 0 800 -10000 1.5708
128      329.152 3 4 0 800 -7333.33 0
129      658.303 3 4 0 800 -7333.33 1.5708
130      329.152 3 4 0 800 -4666.67 0
131      658.303 3 4 0 800 -4666.67 1.5708
132      329.152 3 4 0 800 -2000 0
133      658.303 3 4 0 800 -2000 1.5708
134      329.152 3 4 0 800 666.667 0
135      658.303 3 4 0 800 666.667 1.5708
136      329.152 3 4 0 800 3333.33 0
137      658.303 3 4 0 800 3333.33 1.5708
138      329.152 3 4 0 800 6000 0
139      658.303 3 4 0 800 6000 1.5708
140      329.152 3 4 0 800 8666.67 0
141      658.303 3 4 0 800 8666.67 1.5708
142      329.152 3 4 0 800 11333.3 0
143      658.303 3 4 0 800 11333.3 1.5708
144      329.152 3 4 0 800 14000 0
145      658.303 3 4 0 800 14000 1.5708
146      329.152 3 4 0 800 16666.7 0
147      658.303 3 4 0 800 16666.7 1.5708
148      329.152 3 4 0 800 19333.3 0
149      658.303 3 4 0 800 19333.3 1.5708
150      329.152 3 4 0 800 22000 0
151      658.303 3 4 0 800 22000 1.5708
152      329.152 3 4 0 800 24666.7 0
153      658.303 3 4 0 800 24666.7 1.5708
154      329.152 3 4 0 800 27333.3 0
155      658.303 3 4 0 800 27333.3 1.5708
156      329.152 3 4 0 800 30000 0
157      658.303 3 4 0 800 30000 1.5708
158      329.152 3 4 0 800 32666.7 0
159      658.303 3 4 0 800 32666.7 1.5708
160      329.152 3 4 0 800 35333.3 0
161      658.303 3 4 0 800 35333.3 1.5708
162      329.152 3 4 0 800 38000 0
163      658.303 3 4 0 800 38000 1.5708
164      329.152 3 4 0 800 40666.7 0
165      658.303 3 4 0 800 40666.7 1.5708
166      329.152 3 4 0 800 43333.3 0
167      658.303 3 4 0 800 43333.3 1.5708
168      329.152 3 4 0 800 46000 0
169      658.303 3 4 0 800 46000 1.5708
170      329.152 3 4 0 800 48666.7 0
171      658.303 3 4 0 800 48666.7 1.5708
172      329.152 3 4 0 800 51333.3 0
173      658.303 3 4 0 800 51333.3 1.5708
174      329.152 3 4 0 800 54000 0
175      658.303 3 4 0 800 54000 1.5708
176      329.152 3 4 0 800 56666.7 0
177      658.303 3 4 0 800 56666.7 1.5708

# Format of arbitrary gradients:
#   time_shape_id of 0 means default timing (stepping with grad_raster starting at 1/2 of grad_raster)
# id amplitude amp_shape_id time_shape_id delay
# ..      Hz/m       ..         ..          us
[GRADIENTS]
10            0 5 6 640
12            0 7 8 0
13            0 9 10 0
16      -227273 11 6 640
17      -227273 12 8 0
18      -227273 13 10 0
22       227273 11 6 640
23       227273 12 8 0
24       227273 13 10 0

# Format of trapezoid gradients:
# id amplitude rise flat fall delay
# ..      Hz/m   us   us   us    us
[TRAP]
 1  1.02192e+06 500 2500 500   0
 2 -1.02192e+06 500 2500 500 8810
 3       888889 140 3000 140 660
 4  -1.4537e+06 460  500 460   0
 5            0  10 13050  10   0
 6       811149 130  690 130   0
 7 -1.41534e+06 240    0 240   0
 8            0  70  340  70   0
 9  1.50969e+06 240  210 240   0
11 -1.50969e+06 240  210 240   0
14            0  60  360  60   0
15       399113  70  340  70   0
19       378788  60  360  60   0
20       367965  60  360  60   0
21      -399113  70  340  70   0
25      -378788  60  360  60   0
26      -367965  60  360  60   0

# Format of ADC events:
# id num dwell delay freq phase
# ..  ..    ns    us   Hz   rad
[ADC]
1 292 2000 53 0 0

# Format of extension lists:
# id type ref next_id
# next_id of 0 terminates the list
# Extension list is followed by extension specifications
[EXTENSIONS]
1 1 1 0

# Extension specification for digital output and input triggers:
# id type channel delay (us) duration (us)
extension TRIGGERS 1
1 1 1 100 100

# Sequence Shapes
[SHAPES]

shape_id 1
num_samples 8000
0
0
1742
1e-07
0
0
72
1e-07
0
0
32
1e-07
0
0
21
1e-07
0
0
15
1e-07
0
0
12
1e-07
0
0
9
1e-07
0
0
7
1e-07
0
0
7
1e-07
0
0
5
1e-07
0
0
4
1e-07
0
0
4
1e-07
0
0
3
1e-07
0
0
3
1e-07
0
0
2
1e-07
0
0
2
1e-07
0
0
2
1e-07
0
0
1
1e-07
0
0
2
1e-07
0
0
1
1e-07
0
0
0
1e-07
0
0
1
1e-07
0
0
1
1e-07
0
0
0
1e-07
0
0
0
1e-07
0
0
0
1e-07
0
0
0
1e-07
0
0
0
1e-07
0
0
0
1e-07
0
1e-07
0
0
0
1e-07
0
1e-07
0
0
0
1e-07
0
1e-07
0
1e-07
0
0
0
1e-07
0
1e-07
0
1e-07
0
1e-07
0
1e-07
0
1e-07
0
1e-07
0
1e-07
0
1e-07
1e-07
0
0
1e-07
0
1e-07
1e-07
0
0
1e-07
0
1e-07
1e-07
0
0
1e-07
1e-07
0
0
1e-07
1e-07
0
0
1e-07
1e-07
0
0
1e-07
1e-07
1
0
1e-07
1e-07
2
0
1e-07
1e-07
3
0
1e-07
1e-07
21
2e-07
1e-07
1e-07
2
2e-07
1e-07
1e-07
1
2e-07
1e-07
1e-07
0
2e-07
1e-07
1e-07
0
2e-07
1e-07
1e-07
0
2e-07
1e-07
2e-07
1e-07
2e-07
1e-07
2e-07
1e-07
2e-07
1e-07
2e-07
2e-07
0
1e-07
2e-07
2e-07
0
1e-07
2e-07
2e-07
0
1e-07
2e-07
2e-07
3
1e-07
2e-07
2e-07
8
3e-07
2e-07
2e-07
2
3e-07
2e-07
2e-07
0
3e-07
2e-07
2e-07
0
3e-07
2e-07
3e-07
2e-07
3e-07
2e-07
3e-07
3e-07
0
2e-07
3e-07
3e-07
0
2e-07
3e-07
3e-07
2
2e-07
3e-07
3e-07
2
4e-07
3e-07
3e-07
3
4e-07
3e-07
3e-07
0
4e-07
3e-07
4e-07
3e-07
4e-07
3e-07
4e-07
4e-07
0
3e-07
4e-07
4e-07
3
3e-07
4e-07
5e-07
4e-07
4e-07
2
5e-07
4e-07
4e-07
0
5e-07
4e-07
5e-07
4e-07
5e-07
5e-07
0
4e-07
5e-07
5e-07
7
6e-07
5e-07
5e-07
0
6e-07
5e-07
6e-07
6e-07
0
5e-07
6e-07
6e-07
6
7e-07
6e-07
6e-07
0
7e-07
6e-07
7e-07
7e-07
0
6e-07
7e-07
7e-07
3
8e-07
7e-07
7e-07
0
8e-07
7e-07
8e-07
8e-07
1
7e-07
8e-07
8e-07
0
9e-07
8e-07
8e-07
1
9e-07
8e-07
9e-07
9e-07
6
1e-06
9e-07
1e-06
1e-06
6
1.1e-06
1e-06
1.1e-06
1.1e-06
4
1.2e-06
1.1e-06
1.2e-06
1.2e-06
0
1.1e-06
1.2e-06
1.2e-06
0
1.3e-06
1.2e-06
1.3e-06
1.2e-06
1.3e-06
1.3e-06
3
1.4e-06
1.3e-06
1.4e-06
1.4e-06
3
1.5e-06
1.4e-06
1.5e-06
1.5e-06
2
1.6e-06
1.5e-06
1.6e-06
1.6e-06
3
1.7e-06
1.6e-06
1.7e-06
1.7e-06
1
1.8e-06
1.7e-06
1.8e-06
1.8e-06
3
1.9e-06
1.9e-06
3
2e-06
2e-06
3
2.1e-06
2.1e-06
3
2.2e-06
2.2e-06
3
2.3e-06
2.3e-06
1
2.4e-06
2.3e-06
2.4e-06
2.4e-06
0
2.5e-06
2.4e-06
2.5e-06
2.5e-06
0
2.6e-06
2.5e-06
2.6e-06
2.6e-06
0
2.7e-06
2.6e-06
2.7e-06
2.7e-06
0
2.8e-06
2.8e-06
0
2.7e-06
2.9e-06
2.8e-06
2.9e-06
2.9e-06
1
3e-06
3e-06
1
3.1e-06
3.1e-06
2
3.2e-06
3.2e-06
1
3.3e-06
3.3e-06
1
3.4e-06
3.4e-06
1
3.5e-06
3.5e-06
1
3.6e-06
3.6e-06
1
3.7e-06
3.7e-06
1
3.8e-06
3.8e-06
0
3.9e-06
3.9e-06
2
4e-06
4.1e-06
4e-06
4.2e-06
4.1e-06
4.2e-06
4.2e-06
0
4.3e-06
4.3e-06
0
4.4e-06
4.4e-06
1
4.5e-06
4.5e-06
0
4.6e-06
4.6e-06
1
4.7e-06
4.8e-06
4.8e-06
1
4.9e-06
4.9e-06
0
5e-06
5e-06
1
5.2e-06
5.1e-06
5.2e-06
5.3e-06
5.3e-06
1
5.4e-06
5.5e-06
5.5e-06
0
5.6e-06
5.6e-06
1
5.7e-06
5.8e-06
5.8e-06
0
5.9e-06
5.9e-06
0
6e-06
6.1e-06
6.1e-06
1
6.2e-06
6.3e-06
6.3e-06
0
6.4e-06
6.4e-06
0
6.5e-06
6.6e-06
6.6e-06
0
6.7e-06
6.7e-06
0
6.8e-06
6.9e-06
6.9e-06
0
7e-06
7.1e-06
7.1e-06
0
7.2e-06
7.2e-06
0
7.4e-06
7.3e-06
7.5e-06
7.5e-06
0
7.6e-06
7.7e-06
7.7e-06
0
7.8e-06
7.9e-06
7.9e-06
0
8e-06
8.1e-06
8.1e-06
0
8.3e-06
8.3e-06
0
8.4e-06
8.4e-06
0
8.5e-06
8.6e-06
8.7e-06
8.8e-06
8.8e-06
0
8.9e-06
9e-06
9.1e-06
9.2e-06
9.2e-06
0
9.4e-06
9.4e-06
0
9.5e-06
9.5e-06
0
9.7e-06
9.7e-06
0
9.9e-06
9.9e-06
0
1e-05
1.01e-05
1.02e-05
1.03e-05
1.03e-05
0
1.05e-05
1.06e-05
1.06e-05
0
1.07e-05
1.09e-05
1.09e-05
0
1.1e-05
1.11e-05
1.13e-05
1.13e-05
0
1.14e-05
1.15e-05
1.16e-05
1.18e-05
1.18e-05
0
1.19e-05
1.2e-05
1.22e-05
1.22e-05
0
1.23e-05
1.25e-05
1.26e-05
1.26e-05
0
1.28e-05
1.29e-05
1.3e-05
1.31e-05
1.32e-05
1.34e-05
1.34e-05
0
1.36e-05
1.37e-05
1.38e-05
1.39e-05
1.41e-05
1.41e-05
0
1.43e-05
1.44e-05
1.46e-05
1.46e-05
0
1.48e-05
1.49e-05
1.51e-05
1.51e-05
0
1.53e-05
1.54e-05
1.56e-05
1.57e-05
1.58e-05
1.59e-05
1.61e-05
1.63e-05
1.63e-05
0
1.65e-05
1.67e-05
1.67e-05
0
1.7e-05
1.7e-05
0
1.72e-05
1.74e-05
1.75e-05
1.76e-05
1.78e-05
1.8e-05
1.8e-05
0
1.83e-05
1.84e-05
1.85e-05
1.87e-05
1.89e-05
1.9e-05
1.92e-05
1.93e-05
1.95e-05
1.97e-05
1.98e-05
2e-05
2.01e-05
2.03e-05
2.05e-05
2.07e-05
2.08e-05
2.1e-05
2.12e-05
2.13e-05
2.15e-05
2.17e-05
2.19e-05
2.2e-05
2.23e-05
2.24e-05
2.26e-05
2.28e-05
2.29e-05
2.32e-05
2.33e-05
2.36e-05
2.37e-05
2.39e-05
2.41e-05
2.43e-05
2.45e-05
2.47e-05
2.49e-05
2.52e-05
2.53e-05
2.55e-05
2.57e-05
2.59e-05
2.61e-05
2.64e-05
2.65e-05
2.68e-05
2.7e-05
2.72e-05
2.74e-05
2.76e-05
2.79e-05
2.81e-05
2.83e-05
2.85e-05
2.88e-05
2.89e-05
2.93e-05
2.94e-05
2.97e-05
2.99e-05
3.02e-05
3.03e-05
3.07e-05
3.08e-05
3.12e-05
3.13e-05
3.16e-05
3.19e-05
3.21e-05
3.23e-05
3.27e-05
3.28e-05
3.32e-05
3.33e-05
3.37e-05
3.39e-05
3.42e-05
3.44e-05
3.47e-05
3.5e-05
3.52e-05
3.56e-05
3.58e-05
3.6e-05
3.64e-05
3.66e-05
3.69e-05
3.72e-05
3.75e-05
3.78e-05
3.81e-05
3.83e-05
3.87e-05
3.9e-05
3.92e-05
3.96e-05
3.98e-05
4.02e-05
4.05e-05
4.07e-05
4.11e-05
4.14e-05
4.17e-05
4.21e-05
4.23e-05
4.27e-05
4.3e-05
4.33e-05
4.37e-05
4.4e-05
4.43e-05
4.46e-05
4.5e-05
4.53e-05
4.57e-05
4.6e-05
4.64e-05
4.67e-05
4.7e-05
4.74e-05
4.78e-05
4.81e-05
4.85e-05
4.88e-05
4.92e-05
4.96e-05
4.99e-05
5.03e-05
5.07e-05
5.1e-05
5.15e-05
5.18e-05
5.22e-05
5.26e-05
5.29e-05
5.34e-05
5.38e-05
5.41e-05
5.46e-05
5.49e-05
5.54e-05
5.57e-05
5.62e-05
5.66e-05
5.69e-05
5.74e-05
5.79e-05
5.82e-05
5.87e-05
5.91e-05
5.95e-05
5.99e-05
6.04e-05
6.09e-05
6.12e-05
6.17e-05
6.22e-05
6.26e-05
6.3e-05
6.35e-05
6.4e-05
6.44e-05
6.49e-05
6.54e-05
6.58e-05
6.63e-05
6.67e-05
6.73e-05
6.77e-05
6.82e-05
6.87e-05
6.91e-05
6.97e-05
7.02e-05
7.06e-05
7.12e-05
7.16e-05
7.22e-05
7.27e-05
7.32e-05
7.37e-05
7.42e-05
7.47e-05
7.53e-05
7.58e-05
7.63e-05
7.68e-05
7.74e-05
7.8e-05
7.85e-05
7.9e-05
7.96e-05
8.01e-05
8.07e-05
8.12e-05
8.18e-05
8.24e-05
8.29e-05
8.35e-05
8.41e-05
8.47e-05
8.53e-05
8.58e-05
8.64e-05
8.71e-05
8.76e-05
8.82e-05
8.88e-05
8.95e-05
9e-05
9.07e-05
9.12e-05
9.19e-05
9.25e-05
9.32e-05
9.38e-05
9.44e-05
9.5e-05
9.57e-05
9.64e-05
9.7e-05
9.76e-05
9.83e-05
9.9e-05
9.96e-05
0.0001003
0.000101
0.0001016
0.0001023
0.000103
0.0001037
0.0001044
0.0001051
0.0001058
0.0001064
0.0001072
0.0001079
0.0001086
0.0001094
0.00011
0.0001108
0.0001115
0.0001122
0.000113
0.0001137
0.0001145
0.0001152
0.000116
0.0001167
0.0001175
0.0001183
0.000119
0.0001198
0.0001206
0.0001214
0.0001221
0.0001229
0.0001238
0.0001245
0.0001254
0.0001261
0.000127
0.0001277
0.0001286
0.0001295
0.0001302
0.0001311
0.0001319
0.0001328
0.0001336
0.0001345
0.0001353
0.0001362
0.000137
0.000138
0.0001388
0.0001396
0.0001406
0.0001414
0.0001423
0.0001433
0.0001441
0.000145
0.000146
0.0001468
0.0001478
0.0001487
0.0001496
0.0001506
0.0001515
0.0001525
0.0001534
0.0001543
0.0001553
0.0001563
0.0001572
0.0001582
0.0001592
0.0001601
0.0001612
0.0001621
0.0001631
0.0001642
0.0001651
0.0001662
0.0001671
0.0001682
0.0001692
0.0001702
0.0001713
0.0001723
0.0001734
0.0001744
0.0001755
0.0001765
0.0001776
0.0001786
0.0001798
0.0001808
0.0001819
0.000183
0.000184
0.0001852
0.0001863
0.0001874
0.0001886
0.0001896
0.0001908
0.0001919
0.000193
0.0001942
0.0001953
0.0001965
0.0001977
0.0001988
0.0002
0.0002011
0.0002023
0.0002036
0.0002047
0.0002059
0.0002071
0.0002083
0.0002095
0.0002108
0.000212
0.0002132
0.0002144
0.0002157
0.0002169
0.0002182
0.0002194
0.0002207
0.000222
0.0002232
0.0002245
0.0002258
0.0002271
0.0002284
0.0002297
0.000231
0.0002323
0.0002336
0.000235
0.0002363
0.0002376
0.000239
0.0002403
0.0002416
0.0002431
0.0002443
0.0002458
0.0002471
0.0002486
0.0002499
0.0002513
0.0002527
0.0002541
0.0002555
0.0002569
0.0002584
0.0002598
0.0002612
0.0002627
0.0002641
0.0002655
0.0002671
0.0002685
0.0002699
0.0002715
0.0002729
0.0002744
0.0002759
0.0002774
0.0002789
0.0002804
0.000282
0.0002835
0.000285
0.0002865
0.0002881
0.0002896
0.0002912
0.0002927
0.0002944
0.0002958
0.0002975
0.0002991
0.0003006
0.0003023
0.0003038
0.0003055
0.0003071
0.0003087
0.0003103
0.000312
0.0003136
0.0003152
0.0003169
0.0003186
0.0003203
0.0003219
0.0003236
0.0003252
0.000327
0.0003287
0.0003303
0.0003321
0.0003338
0.0003355
0.0003373
0.000339
0.0003407
0.0003425
0.0003442
0.000346
0.0003477
0.0003496
0.0003513
0.0003531
0.0003549
0.0003567
0.0003585
0.0003603
0.0003621
0.0003639
0.0003658
0.0003676
0.0003695
0.0003713
0.0003731
0.0003751
0.0003768
0.0003788
0.0003807
0.0003825
0.0003844
0.0003864
0.0003882
0.0003901
0.0003921
0.000394
0.0003959
0.0003979
0.0003998
0.0004018
0.0004037
0.0004057
0.0004076
0.0004097
0.0004116
0.0004136
0.0004156
0.0004176
0.0004196
0.0004216
0.0004236
0.0004257
0.0004277
0.0004298
0.0004318
0.0004338
0.0004359
0.000438
0.00044
0.0004421
0.0004442
0.0004463
0.0004484
0.0004505
0.0004526
0.0004547
0.0004569
0.0004589
0.0004612
0.0004632
0.0004654
0.0004675
0.0004697
0.0004719
0.0004741
0.0004762
0.0004784
0.0004806
0.0004828
0.000485
0.0004872
0.0004894
0.0004917
0.0004938
0.0004961
0.0004984
0.0005006
0.0005028
0.0005051
0.0005074
0.0005096
0.000512
0.0005142
0.0005164
0.0005188
0.0005211
0.0005234
0.0005257
0.000528
0.0005304
0.0005327
0.000535
0.0005373
0.0005398
0.000542
0.0005444
0.0005468
0.0005492
0.0005515
0.000554
0.0005563
0.0005587
0.0005611
0.0005635
0.000566
0.0005683
0.0005708
0.0005732
0.0005756
0.0005781
0.0005806
0.0005829
0.0005855
0.0005879
0.0005904
0.0005928
0.0005954
0.0005978
0.0006003
0.0006028
0.0006053
0.0006078
0.0006104
0.0006128
0.0006154
0.0006179
0.0006205
0.000623
0.0006255
0.0006281
0.0006306
0.0006332
0.0006358
0.0006383
0.000641
0.0006435
0.0006461
0.0006486
0.0006513
0.0006539
0.0006565
0.0006591
0.0006617
0.0006644
0.000667
0.0006696
0.0006722
0.0006749
0.0006775
0.0006802
0.0006829
0.0006855
0.0006881
0.0006909
0.0006935
0.0006962
0.0006989
0.0007016
0.0007042
0.000707
0.0007097
0.0007123
0.0007151
0.0007178
0.0007206
0.0007232
0.000726
0.0007287
0.0007315
0.0007342
0.0007369
0.0007397
0.0007424
0.0007452
0.000748
0.0007507
0.0007535
0.0007563
0.000759
0.0007619
0.0007646
0.0007674
0.0007702
0.000773
0.0007758
0.0007786
0.0007814
0.0007842
0.000787
0.0007899
0.0007926
0.0007955
0.0007984
0.0008011
0.000804
0.0008068
0.0008097
0.0008125
0.0008154
0.0008182
0.0008211
0.0008239
0.0008268
0.0008296
0.0008325
0.0008354
0.0008382
0.0008412
0.000844
0.0008468
0.0008498
0.0008526
0.0008555
0.0008585
0.0008613
0.0008642
0.0008671
0.0008699
0.0008729
0.0008758
0.0008787
0.0008816
0.0008846
0.0008874
0.0008903
0.0008933
0.0008961
0.0008991
0.000902
0.000905
0.0009078
0.0009108
0.0009137
0.0009166
0.0009196
0.0009225
0.0009254
0.0009283
0.0009313
0.0009343
0.0009371
0.0009401
0.000943
0.000946
0.0009489
0.0009519
0.0009548
0.0009577
0.0009607
0.0009637
0.0009665
0.0009696
0.0009724
0.0009754
0.0009784
0.0009813
0.0009843
0.0009872
0.0009901
0.0009931
0.0009961
0.0009989
0.001002
0.0010049
0.0010078
0.0010108
0.0010137
0.0010167
0.0010196
0.0010226
0.0010255
0.0010284
0.0010314
0.0010343
0.0010373
0.0010402
0.0010432
0.0010461
0.001049
0.001052
0.0010549
0.0010578
0.0010608
0.0010637
0.0010666
0.0010696
0.0010724
0.0010754
0.0010784
0.0010812
0.0010842
0.0010871
0.00109
0.0010929
0.0010958
0.0010988
0.0011016
0.0011045
0.0011075
0.0011103
0.0011133
0.0011161
0.001119
0.001122
0.0011248
0.0011277
0.0011305
0.0011335
0.0011363
0.0011392
0.001142
0.001145
0.0011477
0.0011507
0.0011535
0.0011563
0.0011592
0.0011621
0.0011648
0.0011677
0.0011706
0.0011734
0.0011762
0.001179
0.0011818
0.0011846
0.0011875
0.0011902
0.0011931
0.0011958
0.0011986
0.0012015
0.0012041
0.001207
0.0012097
0.0012125
0.0012153
0.001218
0.0012208
0.0012235
0.0012262
0.001229
0.0012317
0.0012344
0.0012371
0.0012399
0.0012425
0.0012453
0.0012479
0.0012506
0.0012533
0.001256
0.0012586
0.0012613
0.001264
0.0012666
0.0012692
0.0012719
0.0012745
0.0012771
0.0012798
0.0012823
0.0012849
0.0012876
0.0012901
0.0012927
0.0012953
0.0012978
0.0013004
