# Pulseq sequence file
# Created by MATLAB mr toolbox

[VERSION]
major 1
minor 4
revision 1

[DEFINITIONS]
AdcRasterTime 1e-07 
BlockDurationRaster 1e-05 
FOV 0.192 0.24 0.256 
GradientRasterTime 1e-05 
Name mp_gt 
OrientationMapping SAG 
PhaseResolution 1 
RadiofrequencyRasterTime 1.6e-06 
ReadoutOversamplingFactor 2 
TE 3.0314 
TR 6.84 
TotalDuration 482.755552 
kSpaceCenterLine 120 

# Format of blocks:
# NUM DUR RF  GX  GY  GZ  ADC  EXT
[BLOCKS]
    1 439   0   0   0   0  1  4
    2   0   0   0   0   0  0  5
    3   0   0   0   0   0  0  6
    4   0   0   0   0   0  0  2
    5 6930   2   0   0   0  0  0
    6 50168   0   0   1   0  0  0
    7 243   1   0   0   0  0  0
    8 440   0   5   4   6  2  0
    9 243   3   4   5   7  0  7
   10 440   0   5   4   6  3  0
   11 243   4   4   5   7  0  7
   12 440   0   5   4   6  4  0
   13 243   5   4   5   7  0  7
   14 440   0   5   4   6  5  0
   15 243   6   4   5   7  0  7
   16 440   0   5   4   6  6  0
   17 243   4   4   5   7  0  7
   18 440   0   8   4   6  7  0
   19 243   7   9   5   7  0  7
   20 440   0  10   4   6  8  0
   21 243   8  11   5   7  0  7
   22 440   0  12   4   6  9  0
   23 243   1  13   5   7  0  7
   24 440   0  14   4   6 10  0
   25 243   7  15   5   7  0  7
   26 440   0  16   4   6 11  0
   27 243   9  17   5   7  0  7
   28 440   0  18   4   6 12  0
   29 243   5  19   5   7  0  7
   30 440   0  20   4   6 13  0
   31 243   5  21   5   7  0  7
   32 440   0  22   4   6 14  0
   33 243   9  23   5   7  0  7
   34 440   0  24   4   6 15  0
   35 243   7  25   5   7  0  7
   36 440   0  26   4   6 16  0
   37 243   1  27   5   7  0  7
   38 440   0  28   4   6 17  0
   39 243   8  29   5   7  0  7
   40 440   0  30   4   6 18  0
   41 243   7  31   5   7  0  7
   42 440   0  32   4   6 19  0
   43 243   4  33   5   7  0  7
   44 440   0  34   4   6 20  0
   45 243   6  35   5   7  0  7
   46 440   0  36   4   6 21  0
   47 243   5  37   5   7  0  7
   48 440   0  38   4   6  2  0
   49 243   4  39   5   7  0  7
   50 440   0  40   4   6 22  0
   51 243   3  41   5   7  0  7
   52 440   0  42   4   6 23  0
   53 243   1  43   5   7  0  7
   54 440   0  44   4   6 24  0
   55 243   1  45   5   7  0  7
   56 440   0  46   4   6 25  0
   57 243   3  47   5   7  0  7
   58 440   0  48   4   6 26  0
   59 243   4  49   5   7  0  7
   60 440   0  50   4   6 27  0
   61 243   5  51   5   7  0  7
   62 440   0  52   4   6 28  0
   63 243   6  53   5   7  0  7
   64 440   0  54   4   6 29  0
   65 243   4  55   5   7  0  7
   66 440   0  56   4   6 30  0
   67 243   7  57   5   7  0  7
   68 440   0  58   4   6 31  0
   69 243   8  59   5   7  0  7
   70 440   0  60   4   6 32  0
   71 243   1  61   5   7  0  7
   72 440   0  62   4   6 33  0
   73 243   7  63   5   7  0  7
   74 440   0  64   4   6 34  0
   75 243   9  65   5   7  0  7
   76 440   0  66   4   6 35  0
   77 243   5  67   5   7  0  7
   78 440   0  68   4   6 36  0
   79 243   5  69   5   7  0  7
   80 440   0  70   4   6 37  0
   81 243   9  71   5   7  0  7
   82 440   0  72   4   6 38  0
   83 243   7  73   5   7  0  7
   84 440   0  74   4   6 39  0
   85 243   1  75   5   7  0  7
   86 440   0  76   4   6 13  0
   87 243   8  77   5   7  0  7
   88 440   0  78   4   6 40  0
   89 243   7  79   5   7  0  7
   90 440   0  80   4   6 41  0
   91 243   4  81   5   7  0  7
   92 440   0  82   4   6 42  0
   93 243   6  83   5   7  0  7
   94 440   0  84   4   6 43  0
   95 243   5  85   5   7  0  7
   96 440   0  86   4   6 44  0
   97 243   4  87   5   7  0  7
   98 440   0  88   4   6 45  0
   99 243   3  89   5   7  0  7
  100 440   0  90   4   6 46  0
  101 243   1  91   5   7  0  7
  102 440   0  92   4   6 47  0
  103 243   1  93   5   7  0  7
  104 440   0  94   4   6 48  0
  105 243   3  95   5   7  0  7
  106 440   0  96   4   6 49  0
  107 243   4  97   5   7  0  7
  108 440   0  98   4   6 50  0
  109 243   5  99   5   7  0  7
  110 440   0 100   4   6 19  0
  111 243   6 101   5   7  0  7
  112 440   0 102   4   6 51  0
  113 243   4 103   5   7  0  7
  114 440   0 104   4   6 52  0
  115 243   7 105   5   7  0  7
  116 440   0 106   4   6 53  0
  117 243   8 107   5   7  0  7
  118 440   0 108   4   6 54  0
  119 243   1 109   5   7  0  7
  120 440   0 110   4   6 55  0
  121 243   7 111   5   7  0  7
  122 440   0 112   4   6 56  0
  123 243   9 113   5   7  0  7
  124 440   0 114   4   6 49  0
  125 243   5 115   5   7  0  7
  126 440   0 116   4   6 48  0
  127 243   5 117   5   7  0  7
  128 440   0 118   4   6 57  0
  129 243   9 119   5   7  0  7
  130 440   0 120   4   6 58  0
  131 243   7 121   5   7  0  7
  132 440   0 122   4   6 59  0
  133 243   1 123   5   7  0  7
  134 440   0 124   4   6  2  0
  135 243   8 125   5   7  0  7
  136 440   0 126   4   6 60  0
  137 243   7 127   5   7  0  7
  138 440   0 128   4   6 61  0
  139 243   4 129   5   7  0  7
  140 440   0 130   4   6 62  0
  141 243   6 131   5   7  0  7
  142 440   0 132   4   6 63  0
  143 243   5 133   5   7  0  7
  144 440   0 134   4   6 64  0
  145 243   4 135   5   7  0  7
  146 440   0 136   4   6 64  0
  147 243   3 137   5   7  0  7
  148 440   0 138   4   6 65  0
  149 243   1 139   5   7  0  7
  150 440   0 140   4   6 28  0
  151 243   1 141   5   7  0  7
  152 440   0 142   4   6 66  0
  153 243   3 143   5   7  0  7
  154 440   0 144   4   6 67  0
  155 243   4 145   5   7  0  7
  156 440   0 146   4   6 35  0
  157 243   5 147   5   7  0  7
  158 440   0 148   4   6 68  0
  159 243   6 149   5   7  0  7
  160 440   0 150   4   6 69  0
  161 243   4 151   5   7  0  7
  162 440   0 152   4   6 70  0
  163 243   7 153   5   7  0  7
  164 440   0 154   4   6 71  0
  165 243   8 155   5   7  0  7
  166 440   0 156   4   6 64  0
  167 243   1 157   5   7  0  7
  168 440   0 158   4   6 72  0
  169 243   7 159   5   7  0  7
  170 440   0 160   4   6 40  0
  171 243   9 161   5   7  0  7
  172 440   0 162   4   6  7  0
  173 243   5 163   5   7  0  7
  174 440   0 164   4   6 73  0
  175 243   5 165   5   7  0  7
  176 440   0 166   4   6 74  0
  177 243   9 167   5   7  0  7
  178 440   0 168   4   6 75  0
  179 243   7 169   5   7  0  7
  180 440   0 170   4   6 24  0
  181 243   1 171   5   7  0  7
  182 440   0 172   4   6 76  0
  183 243   8 173   5   7  0  7
  184 440   0 174   4   6 77  0
  185 243   7 175   5   7  0  7
  186 440   0 176   4   6 78  0
  187 243   4 177   5   7  0  7
  188 440   0 178   4   6 79  0
  189 243   6 179   5   7  0  7
  190 440   0 180   4   6 80  0
  191 243   5 181   5   7  0  7
  192 440   0 182   4   6 81  0
  193 243   4 183   5   7  0  7
  194 440   0 184   4   6 82  0
  195 243   3 185   5   7  0  7
  196 440   0 186   4   6 83  0
  197 243   1 187   5   7  0  7
  198 440   0 188   4   6 84  0
  199 243   1 189   5   7  0  7
  200 440   0 190   4   6 85  0
  201 243   3 191   5   7  0  7
  202 440   0 192   4   6 86  0
  203 243   4 193   5   7  0  7
  204 440   0 194   4   6 59  0
  205 243   5 195   5   7  0  7
  206 440   0 196   4   6 32  0
  207 243   6 197   5   7  0  7
  208 440   0 198   4   6 87  0
  209 243   4 199   5   7  0  7
  210 440   0 197   4   6 88  0
  211 243   7 196   5   7  0  7
  212 440   0 195   4   6 89  0
  213 243   8 194   5   7  0  7
  214 440   0 193   4   6 90  0
  215 243   1 192   5   7  0  7
  216 440   0 191   4   6 91  0
  217 243   7 190   5   7  0  7
  218 440   0 189   4   6 92  0
  219 243   9 188   5   7  0  7
  220 440   0 187   4   6 93  0
  221 243   5 186   5   7  0  7
  222 440   0 185   4   6 94  0
  223 243   5 184   5   7  0  7
  224 440   0 183   4   6 48  0
  225 243   9 182   5   7  0  7
  226 440   0 181   4   6 95  0
  227 243   7 180   5   7  0  7
  228 440   0 179   4   6 58  0
  229 243   1 178   5   7  0  7
  230 440   0 177   4   6 28  0
  231 243   8 176   5   7  0  7
  232 440   0 175   4   6 96  0
  233 243   7 174   5   7  0  7
  234 440   0 173   4   6 97  0
  235 243   4 172   5   7  0  7
  236 440   0 171   4   6 98  0
  237 243   6 170   5   7  0  7
  238 440   0 169   4   6 99  0
  239 243   5 168   5   7  0  7
  240 440   0 167   4   6 100  0
  241 243   4 166   5   7  0  7
  242 440   0 165   4   6 27  0
  243 243   3 164   5   7  0  7
  244 440   0 163   4   6  9  0
  245 243   1 162   5   7  0  7
  246 440   0 161   4   6 101  0
  247 243   1 160   5   7  0  7
  248 440   0 159   4   6 102  0
  249 243   3 158   5   7  0  7
  250 440   0 157   4   6 103  0
  251 243   4 156   5   7  0  7
  252 440   0 155   4   6 104  0
  253 243   5 154   5   7  0  7
  254 440   0 153   4   6 32  0
  255 243   6 152   5   7  0  7
  256 440   0 151   4   6 105  0
  257 243   4 150   5   7  0  7
  258 440   0 149   4   6 106  0
  259 243   7 148   5   7  0  7
  260 440   0 147   4   6 37  0
  261 243   8 146   5   7  0  7
  262 440   0 145   4   6 107  0
  263 243   1 144   5   7  0  7
  264 440   0 143   4   6 108  0
  265 243   7 142   5   7  0  7
  266 440   0 141   4   6 67  0
  267 243   9 140   5   7  0  7
  268 440   0 139   4   6 107  0
  269 243   5 138   5   7  0  7
  270 440   0 137   4   6 60  0
  271 243   5 136   5   7  0  7
  272 440   0 135   4   6 91  0
  273 243   9 134   5   7  0  7
  274 440   0 133   4   6 109  0
  275 243   7 132   5   7  0  7
  276 440   0 131   4   6 110  0
  277 243   1 130   5   7  0  7
  278 440   0 129   4   6 44  0
  279 243   8 128   5   7  0  7
  280 440   0 127   4   6 111  0
  281 243   7 126   5   7  0  7
  282 440   0 125   4   6 112  0
  283 243   4 124   5   7  0  7
  284 440   0 123   4   6 113  0
  285 243   6 122   5   7  0  7
  286 440   0 121   4   6 85  0
  287 243   5 120   5   7  0  7
  288 440   0 119   4   6 114  0
  289 243   4 118   5   7  0  7
  290 440   0 117   4   6 115  0
  291 243   3 116   5   7  0  7
  292 440   0 115   4   6 34  0
  293 243   1 114   5   7  0  7
  294 440   0 113   4   6 116  0
  295 243   1 112   5   7  0  7
  296 440   0 111   4   6 117  0
  297 243   3 110   5   7  0  7
[RF]
1      17.0068 5 6 7 1430.4 0 0
2      979.188 8 9 0 44520 0 0
3      17.0068 5 6 7 1430.4 0 2.61799
4      17.0068 5 6 7 1430.4 0 1.5708
5      17.0068 5 6 7 1430.4 0 3.14159
6      17.0068 5 6 7 1430.4 0 1.0472
7      17.0068 5 6 7 1430.4 0 4.71239
8      17.0068 5 6 7 1430.4 0 4.18879
9      17.0068 5 6 7 1430.4 0 5.75959

# Format of arbitrary gradients:
#   time_shape_id of 0 means default timing (stepping with grad_raster starting at 1/2 of grad_raster)
# id amplitude amp_shape_id time_shape_id delay
# ..      Hz/m       ..         ..          us
[GRADIENTS]
2  1.18679e+06 1 2 0
3 -1.18138e+06 3 4 0
6  1.18138e+06 3 4 0
7 -1.18679e+06 1 2 0

# Format of trapezoid gradients:
# id amplitude rise flat fall delay
# ..      Hz/m   us   us   us    us
[TRAP]
 1       402820  70 9860  70   0
 4  1.19048e+06 200  220 200   0
 5 -1.19048e+06 200  220 200   0
 8 -1.17808e+06 200  220 200   0
 9  1.17808e+06 200  220 200   0
10 -1.16567e+06 200  220 200   0
11  1.16567e+06 200  220 200   0
12 -1.15327e+06 200  220 200   0
13  1.15327e+06 200  220 200   0
14 -1.14087e+06 200  220 200   0
15  1.14087e+06 200  220 200   0
16 -1.12847e+06 200  220 200   0
17  1.12847e+06 200  220 200   0
18 -1.11607e+06 200  220 200   0
19  1.11607e+06 200  220 200   0
20 -1.10367e+06 200  220 200   0
21  1.10367e+06 200  220 200   0
22 -1.09127e+06 200  220 200   0
23  1.09127e+06 200  220 200   0
24 -1.07887e+06 200  220 200   0
25  1.07887e+06 200  220 200   0
26 -1.06647e+06 200  220 200   0
27  1.06647e+06 200  220 200   0
28 -1.05407e+06 200  220 200   0
29  1.05407e+06 200  220 200   0
30 -1.04167e+06 200  220 200   0
31  1.04167e+06 200  220 200   0
32 -1.02927e+06 200  220 200   0
33  1.02927e+06 200  220 200   0
34 -1.01687e+06 200  220 200   0
35  1.01687e+06 200  220 200   0
36 -1.00446e+06 200  220 200   0
37  1.00446e+06 200  220 200   0
38      -992063 200  220 200   0
39       992063 200  220 200   0
40      -979663 200  220 200   0
41       979663 200  220 200   0
42      -967262 200  220 200   0
43       967262 200  220 200   0
44      -954861 200  220 200   0
45       954861 200  220 200   0
46      -942460 200  220 200   0
47       942460 200  220 200   0
48      -930060 200  220 200   0
49       930060 200  220 200   0
50      -917659 200  220 200   0
51       917659 200  220 200   0
52      -905258 200  220 200   0
53       905258 200  220 200   0
54      -892857 200  220 200   0
55       892857 200  220 200   0
56      -880456 200  220 200   0
57       880456 200  220 200   0
58      -868056 200  220 200   0
59       868056 200  220 200   0
60      -855655 200  220 200   0
61       855655 200  220 200   0
62      -843254 200  220 200   0
63       843254 200  220 200   0
64      -830853 200  220 200   0
65       830853 200  220 200   0
66      -818452 200  220 200   0
67       818452 200  220 200   0
68      -806052 200  220 200   0
69       806052 200  220 200   0
70      -793651 200  220 200   0
71       793651 200  220 200   0
72      -781250 200  220 200   0
73       781250 200  220 200   0
74      -768849 200  220 200   0
75       768849 200  220 200   0
76      -756448 200  220 200   0
77       756448 200  220 200   0
78      -744048 200  220 200   0
79       744048 200  220 200   0
80      -731647 200  220 200   0
81       731647 200  220 200   0
82      -719246 200  220 200   0
83       719246 200  220 200   0
84      -706845 200  220 200   0
85       706845 200  220 200   0
86      -694444 200  220 200   0
87       694444 200  220 200   0
88      -682044 200  220 200   0
89       682044 200  220 200   0
90      -669643 200  220 200   0
91       669643 200  220 200   0
92      -657242 200  220 200   0
93       657242 200  220 200   0
94      -644841 200  220 200   0
95       644841 200  220 200   0
96      -632440 200  220 200   0
97       632440 200  220 200   0
98      -620040 200  220 200   0
99       620040 200  220 200   0
100      -607639 200  220 200   0
101       607639 200  220 200   0
102      -595238 200  220 200   0
103       595238 200  220 200   0
104      -582837 200  220 200   0
105       582837 200  220 200   0
106      -570437 200  220 200   0
107       570437 200  220 200   0
108      -558036 200  220 200   0
109       558036 200  220 200   0
110      -545635 200  220 200   0
111       545635 200  220 200   0
112      -533234 200  220 200   0
113       533234 200  220 200   0
114      -520833 200  220 200   0
115       520833 200  220 200   0
116      -508433 200  220 200   0
117       508433 200  220 200   0
118      -496032 200  220 200   0
119       496032 200  220 200   0
120      -483631 200  220 200   0
121       483631 200  220 200   0
122      -471230 200  220 200   0
123       471230 200  220 200   0
124      -458829 200  220 200   0
125       458829 200  220 200   0
126      -446429 200  220 200   0
127       446429 200  220 200   0
128      -434028 200  220 200   0
129       434028 200  220 200   0
130      -421627 200  220 200   0
131       421627 200  220 200   0
132      -409226 200  220 200   0
133       409226 200  220 200   0
134      -396825 200  220 200   0
135       396825 200  220 200   0
136      -384425 200  220 200   0
137       384425 200  220 200   0
138      -372024 200  220 200   0
139       372024 200  220 200   0
140      -359623 200  220 200   0
141       359623 200  220 200   0
142      -347222 200  220 200   0
143       347222 200  220 200   0
144      -334821 200  220 200   0
145       334821 200  220 200   0
146      -322421 200  220 200   0
147       322421 200  220 200   0
148      -310020 200  220 200   0
149       310020 200  220 200   0
150      -297619 200  220 200   0
151       297619 200  220 200   0
152      -285218 200  220 200   0
153       285218 200  220 200   0
154      -272817 200  220 200   0
155       272817 200  220 200   0
156      -260417 200  220 200   0
157       260417 200  220 200   0
158      -248016 200  220 200   0
159       248016 200  220 200   0
160      -235615 200  220 200   0
161       235615 200  220 200   0
162      -223214 200  220 200   0
163       223214 200  220 200   0
164      -210813 200  220 200   0
165       210813 200  220 200   0
166      -198413 200  220 200   0
167       198413 200  220 200   0
168      -186012 200  220 200   0
169       186012 200  220 200   0
170      -173611 200  220 200   0
171       173611 200  220 200   0
172      -161210 200  220 200   0
173       161210 200  220 200   0
174      -148810 200  220 200   0
175       148810 200  220 200   0
176      -136409 200  220 200   0
177       136409 200  220 200   0
178      -124008 200  220 200   0
179       124008 200  220 200   0
180      -111607 200  220 200   0
181       111607 200  220 200   0
182     -99206.3 200  220 200   0
183      99206.3 200  220 200   0
184     -86805.6 200  220 200   0
185      86805.6 200  220 200   0
186     -74404.8 200  220 200   0
187      74404.8 200  220 200   0
188       -62004 200  220 200   0
189        62004 200  220 200   0
190     -49603.2 200  220 200   0
191      49603.2 200  220 200   0
192     -37202.4 200  220 200   0
193      37202.4 200  220 200   0
194     -24801.6 200  220 200   0
195      24801.6 200  220 200   0
196     -12400.8 200  220 200   0
197      12400.8 200  220 200   0
198            0 200  220 200   0
199           -0 200  220 200   0
200  1.17063e+06 200  220 200   0
201 -1.17063e+06 200  220 200   0
202  1.15079e+06 200  220 200   0
203 -1.15079e+06 200  220 200   0
204  1.13095e+06 200  220 200   0
205 -1.13095e+06 200  220 200   0
206  1.11111e+06 200  220 200   0
207 -1.11111e+06 200  220 200   0
208  1.07143e+06 200  220 200   0
209 -1.07143e+06 200  220 200   0
210  1.05159e+06 200  220 200   0
211 -1.05159e+06 200  220 200   0
212  1.03175e+06 200  220 200   0
213 -1.03175e+06 200  220 200   0
214   1.0119e+06 200  220 200   0
215  -1.0119e+06 200  220 200   0
216       972222 200  220 200   0
217      -972222 200  220 200   0
218       952381 200  220 200   0
219      -952381 200  220 200   0
220       932540 200  220 200   0
221      -932540 200  220 200   0
222       912698 200  220 200   0
223      -912698 200  220 200   0
224       873016 200  220 200   0
225      -873016 200  220 200   0
226       853175 200  220 200   0
227      -853175 200  220 200   0
228       833333 200  220 200   0
229      -833333 200  220 200   0
230       813492 200  220 200   0
231      -813492 200  220 200   0
232       773810 200  220 200   0
233      -773810 200  220 200   0
234       753968 200  220 200   0
235      -753968 200  220 200   0
236       734127 200  220 200   0
237      -734127 200  220 200   0
238       714286 200  220 200   0
239      -714286 200  220 200   0
240       674603 200  220 200   0
241      -674603 200  220 200   0
242       654762 200  220 200   0
243      -654762 200  220 200   0
244       634921 200  220 200   0
245      -634921 200  220 200   0
246       615079 200  220 200   0
247      -615079 200  220 200   0
248       575397 200  220 200   0
249      -575397 200  220 200   0
250       555556 200  220 200   0
251      -555556 200  220 200   0
252       535714 200  220 200   0
253      -535714 200  220 200   0
254       515873 200  220 200   0
255      -515873 200  220 200   0
256       476190 200  220 200   0
257      -476190 200  220 200   0
258       456349 200  220 200   0
259      -456349 200  220 200   0
260       436508 200  220 200   0
261      -436508 200  220 200   0
262       416667 200  220 200   0
263      -416667 200  220 200   0
264       376984 200  220 200   0
265      -376984 200  220 200   0
266       357143 200  220 200   0
267      -357143 200  220 200   0
268       337302 200  220 200   0
269      -337302 200  220 200   0
270       317460 200  220 200   0
271      -317460 200  220 200   0
272       277778 200  220 200   0
273      -277778 200  220 200   0
274       257937 200  220 200   0
275      -257937 200  220 200   0
276       238095 200  220 200   0
277      -238095 200  220 200   0
278       218254 200  220 200   0
279      -218254 200  220 200   0
280       178571 200  220 200   0
281      -178571 200  220 200   0
282       158730 200  220 200   0
283      -158730 200  220 200   0
284       138889 200  220 200   0
285      -138889 200  220 200   0
286       128968 200  220 200   0
287      -128968 200  220 200   0
288       119048 200  220 200   0
289      -119048 200  220 200   0
290       109127 200  220 200   0
291      -109127 200  220 200   0
292      89285.7 200  220 200   0
293     -89285.7 200  220 200   0
294      79365.1 200  220 200   0
295     -79365.1 200  220 200   0
296      69444.4 200  220 200   0
297     -69444.4 200  220 200   0
298      59523.8 200  220 200   0
299     -59523.8 200  220 200   0
300      39682.5 200  220 200   0
301     -39682.5 200  220 200   0
302      29761.9 200  220 200   0
303     -29761.9 200  220 200   0
304      19841.3 200  220 200   0
305     -19841.3 200  220 200   0
306      9920.63 200  220 200   0
307     -9920.63 200  220 200   0

# Format of ADC events:
# id num dwell delay freq phase
# ..  ..    ns    us   Hz   rad
[ADC]
1 512 6960 730 0 0
2 512 6960 730 0 1.64061
3 512 6960 730 0 0.471239
4 512 6960 730 0 3.31613
5 512 6960 730 0 2.87979
6 512 6960 730 0 3.07178
7 512 6960 730 0 1.69297
8 512 6960 730 0 0.0698132
9 512 6960 730 0 0.890118
10 512 6960 730 0 4.60767
11 512 6960 730 0 2.28638
12 512 6960 730 0 1.90241
13 512 6960 730 0 3.94444
14 512 6960 730 0 3.92699
15 512 6960 730 0 2.51327
16 512 6960 730 0 1.22173
17 512 6960 730 0 1.81514
18 512 6960 730 0 2.89725
19 512 6960 730 0 3.83972
20 512 6960 730 0 4.18879
21 512 6960 730 0 1.5708
22 512 6960 730 0 5.89921
23 512 6960 730 0 4.43314
24 512 6960 730 0 1.06465
25 512 6960 730 0 3.14159
26 512 6960 730 0 0.593412
27 512 6960 730 0 4.17134
28 512 6960 730 0 1.25664
29 512 6960 730 0 4.38078
30 512 6960 730 0 3.66519
31 512 6960 730 0 5.88176
32 512 6960 730 0 0.785398
33 512 6960 730 0 2.67035
34 512 6960 730 0 4.72984
35 512 6960 730 0 2.68781
36 512 6960 730 0 0.10472
37 512 6960 730 0 1.44862
38 512 6960 730 0 2.58309
39 512 6960 730 0 5.74213
40 512 6960 730 0 0.261799
41 512 6960 730 0 5.93412
42 512 6960 730 0 1.58825
43 512 6960 730 0 0.226893
44 512 6960 730 0 3.50811
45 512 6960 730 0 3.38594
46 512 6960 730 0 4.81711
47 512 6960 730 0 1.27409
48 512 6960 730 0 3.08923
49 512 6960 730 0 5.58505
50 512 6960 730 0 0.541052
51 512 6960 730 0 4.59022
52 512 6960 730 0 4.69494
53 512 6960 730 0 0.0349066
54 512 6960 730 0 1.13446
55 512 6960 730 0 0.558505
56 512 6960 730 0 1.18682
57 512 6960 730 0 5.28835
58 512 6960 730 0 0.872665
59 512 6960 730 0 4.7822
60 512 6960 730 0 2.1293
61 512 6960 730 0 2.77507
62 512 6960 730 0 5.75959
63 512 6960 730 0 3.63028
64 512 6960 730 0 4.15388
65 512 6960 730 0 4.66003
66 512 6960 730 0 1.67552
67 512 6960 730 0 2.74017
68 512 6960 730 0 2.93215
69 512 6960 730 0 3.87463
70 512 6960 730 0 0.925025
71 512 6960 730 0 3.40339
72 512 6960 730 0 4.55531
73 512 6960 730 0 5.70723
74 512 6960 730 0 1.3439
75 512 6960 730 0 1.97222
76 512 6960 730 0 6.07375
77 512 6960 730 0 3.57792
78 512 6960 730 0 5.55015
79 512 6960 730 0 4.92183
80 512 6960 730 0 5.68977
81 512 6960 730 0 2.80998
82 512 6960 730 0 1.93732
83 512 6960 730 0 1.09956
84 512 6960 730 0 4.62512
85 512 6960 730 0 2.70526
86 512 6960 730 0 1.95477
87 512 6960 730 0 5.34071
88 512 6960 730 0 4.88692
89 512 6960 730 0 6.17847
90 512 6960 730 0 5.67232
91 512 6960 730 0 5.86431
92 512 6960 730 0 5.42797
93 512 6960 730 0 2.04204
94 512 6960 730 0 5.35816
95 512 6960 730 0 4.46804
96 512 6960 730 0 0.15708
97 512 6960 730 0 1.76278
98 512 6960 730 0 3.76991
99 512 6960 730 0 0.959931
100 512 6960 730 0 3.4383
101 512 6960 730 0 1.71042
102 512 6960 730 0 0.610865
103 512 6960 730 0 5.98648
104 512 6960 730 0 3.21141
105 512 6960 730 0 2.54818
106 512 6960 730 0 2.72271
107 512 6960 730 0 0.645772
108 512 6960 730 0 3.64774
109 512 6960 730 0 3.10669
110 512 6960 730 0 2.42601
111 512 6960 730 0 2.46091
112 512 6960 730 0 5.72468
113 512 6960 730 0 1.62316
114 512 6960 730 0 5.27089
115 512 6960 730 0 3.29867
116 512 6960 730 0 0.506145
117 512 6960 730 0 1.0821
118 512 6960 730 0 4.79966
119 512 6960 730 0 3.28122
120 512 6960 730 0 4.67748
121 512 6960 730 0 4.08407
122 512 6960 730 0 1.8675
123 512 6960 730 0 1.20428
124 512 6960 730 0 1.29154
125 512 6960 730 0 2.33874
126 512 6960 730 0 1.88496
127 512 6960 730 0 3.54302
128 512 6960 730 0 6.0912
129 512 6960 730 0 4.90438
130 512 6960 730 0 5.07891
131 512 6960 730 0 3.90954
132 512 6960 730 0 1.79769
133 512 6960 730 0 2.25147
134 512 6960 730 0 3.75246
135 512 6960 730 0 5.16617
136 512 6960 730 0 4.39823
137 512 6960 730 0 4.53786
138 512 6960 730 0 4.03171
139 512 6960 730 0 2.56563
140 512 6960 730 0 4.04916
141 512 6960 730 0 2.37365
142 512 6960 730 0 6.24828
143 512 6960 730 0 3.735
144 512 6960 730 0 1.78024
145 512 6960 730 0 2.84489
146 512 6960 730 0 3.85718
147 512 6960 730 0 4.85202
148 512 6960 730 0 1.23918
149 512 6960 730 0 3.78736
150 512 6960 730 0 0.296706
151 512 6960 730 0 4.29351
152 512 6960 730 0 0.436332
153 512 6960 730 0 3.24631
154 512 6960 730 0 3.03687
155 512 6960 730 0 0.837758
156 512 6960 730 0 1.37881
157 512 6960 730 0 4.93928
158 512 6960 730 0 1.16937
159 512 6960 730 0 5.37561
160 512 6960 730 0 0.191986
161 512 6960 730 0 1.309
162 512 6960 730 0 3.61283
163 512 6960 730 0 5.46288
164 512 6960 730 0 4.10152
165 512 6960 730 0 5.3058
166 512 6960 730 0 2.47837
167 512 6960 730 0 3.01942
168 512 6960 730 0 4.76475
169 512 6960 730 0 3.89208
170 512 6960 730 0 5.96903
171 512 6960 730 0 1.48353
172 512 6960 730 0 1.53589
173 512 6960 730 0 2.44346
174 512 6960 730 0 1.39626
175 512 6960 730 0 3.33358
176 512 6960 730 0 2.82743
177 512 6960 730 0 4.83456
178 512 6960 730 0 0.907571
179 512 6960 730 0 1.74533
180 512 6960 730 0 2.60054
181 512 6960 730 0 6.16101
182 512 6960 730 0 2.16421
183 512 6960 730 0 5.21853
184 512 6960 730 0 2.96706
185 512 6960 730 0 5.91667
186 512 6960 730 0 0.994838
187 512 6960 730 0 2.6529
188 512 6960 730 0 5.11381
189 512 6960 730 0 6.02139
190 512 6960 730 0 0.331613
191 512 6960 730 0 4.50295
192 512 6960 730 0 0.0523599
193 512 6960 730 0 0.680678
194 512 6960 730 0 2.94961
195 512 6960 730 0 5.48033
196 512 6960 730 0 4.86947
197 512 6960 730 0 5.25344
198 512 6960 730 0 5.61996
199 512 6960 730 0 2.79253
200 512 6960 730 0 5.09636
201 512 6960 730 0 0.174533
202 512 6960 730 0 5.00909
203 512 6960 730 0 0.244346
204 512 6960 730 0 2.05949
205 512 6960 730 0 0.942478
206 512 6960 730 0 0.383972
207 512 6960 730 0 1.55334
208 512 6960 730 0 0.0872665
209 512 6960 730 0 1.85005
210 512 6960 730 0 2.75762
211 512 6960 730 0 4.45059
212 512 6960 730 0 3.52557
213 512 6960 730 0 3.68264
214 512 6960 730 0 2.07694
215 512 6960 730 0 0.20944
216 512 6960 730 0 5.23599
217 512 6960 730 0 6.21337
218 512 6960 730 0 5.41052
219 512 6960 730 0 0.488692
220 512 6960 730 0 3.42085
221 512 6960 730 0 4.57276
222 512 6960 730 0 0.139626
223 512 6960 730 0 2.32129
224 512 6960 730 0 3.35103
225 512 6960 730 0 0.418879
226 512 6960 730 0 3.26377
227 512 6960 730 0 0.698132
228 512 6960 730 0 2.53073
229 512 6960 730 0 3.15905
230 512 6960 730 0 1.11701
231 512 6960 730 0 5.32325
232 512 6960 730 0 6.14356
233 512 6960 730 0 4.41568
234 512 6960 730 0 1.15192
235 512 6960 730 0 3.59538
236 512 6960 730 0 4.71239
237 512 6960 730 0 1.50098
238 512 6960 730 0 2.11185
239 512 6960 730 0 0.575959
240 512 6960 730 0 3.22886
241 512 6960 730 0 4.27606
242 512 6960 730 0 2.14675
243 512 6960 730 0 4.95674
244 512 6960 730 0 0.820305
245 512 6960 730 0 0.314159
246 512 6960 730 0 0.366519
247 512 6960 730 0 5.95157
248 512 6960 730 0 4.32842
249 512 6960 730 0 1.51844
250 512 6960 730 0 0.767945
251 512 6960 730 0 6.12611
252 512 6960 730 0 5.65487
253 512 6960 730 0 0.523599
254 512 6960 730 0 4.4855
255 512 6960 730 0 1.02974
256 512 6960 730 0 3.45575
257 512 6960 730 0 1.8326
258 512 6960 730 0 2.49582
259 512 6960 730 0 5.79449
260 512 6960 730 0 5.06145
261 512 6960 730 0 4.5204
262 512 6960 730 0 3.12414
263 512 6960 730 0 2.19911
264 512 6960 730 0 3.82227
265 512 6960 730 0 6.23083
266 512 6960 730 0 0.977384
267 512 6960 730 0 2.98451
268 512 6960 730 0 3.19395
269 512 6960 730 0 5.60251
270 512 6960 730 0 2.86234
271 512 6960 730 0 5.20108
272 512 6960 730 0 2.23402
273 512 6960 730 0 5.02655
274 512 6960 730 0 1.6057
275 512 6960 730 0 2.02458
276 512 6960 730 0 4.7473
277 512 6960 730 0 4.34587
278 512 6960 730 0 5.39307
279 512 6960 730 0 1.43117
280 512 6960 730 0 0.279253
281 512 6960 730 0 2.3911
282 512 6960 730 0 0.750492
283 512 6960 730 0 0.401426
284 512 6960 730 0 0.453786
285 512 6960 730 0 0.349066
286 512 6960 730 0 3.47321
287 512 6960 730 0 3.97935
288 512 6960 730 0 0.122173
289 512 6960 730 0 2.61799
290 512 6960 730 0 2.18166
291 512 6960 730 0 6.05629
292 512 6960 730 0 4.64258
293 512 6960 730 0 5.49779
294 512 6960 730 0 1.01229
295 512 6960 730 0 1.98968
296 512 6960 730 0 4.01426
297 512 6960 730 0 2.40855
298 512 6960 730 0 0.802851
299 512 6960 730 0 6.03884
300 512 6960 730 0 5.044
301 512 6960 730 0 4.99164
302 512 6960 730 0 2.30383
303 512 6960 730 0 6.10865
304 512 6960 730 0 3.9968
305 512 6960 730 0 5.44543
306 512 6960 730 0 5.51524
307 512 6960 730 0 4.2237
308 512 6960 730 0 5.14872
309 512 6960 730 0 3.49066
310 512 6960 730 0 5.53269
311 512 6960 730 0 3.56047
312 512 6960 730 0 4.13643
313 512 6960 730 0 2.26893
314 512 6960 730 0 1.46608
315 512 6960 730 0 5.63741
316 512 6960 730 0 2.21657
317 512 6960 730 0 5.5676
318 512 6960 730 0 5.84685
319 512 6960 730 0 3.9619
320 512 6960 730 0 0.663225
321 512 6960 730 0 5.18363
322 512 6960 730 0 1.32645
323 512 6960 730 0 3.71755
324 512 6960 730 0 3.00197
325 512 6960 730 0 3.36849
326 512 6960 730 0 5.8294
327 512 6960 730 0 1.41372
328 512 6960 730 0 0.628319
329 512 6960 730 0 1.36136
330 512 6960 730 0 4.97419
331 512 6960 730 0 2.35619
332 512 6960 730 0 0.855211
333 512 6960 730 0 3.1765
